time (s)	det(V)
430910.259824	0.277865	
430910.261825	0.261397	
430910.263824	0.252316	
430910.265824	0.245840	
430910.267825	0.238914	
430910.269825	0.232094	
430910.273822	0.225540	
430910.275825	0.214781	
430910.277824	0.209061	
430910.281824	0.203968	
430910.283825	0.195625	
430910.285825	0.191901	
430910.287824	0.186546	
430910.289825	0.181320	
430910.293824	0.178121	
430910.297822	0.167443	
430910.299825	0.158816	
430910.301824	0.155036	
430910.303826	0.150728	
430910.305825	0.147009	
430910.307824	0.144150	
430910.311823	0.140821	
430910.313825	0.133263	
430910.315828	0.130624	
430910.319826	0.127817	
430910.321827	0.122503	
430910.323827	0.119359	
430910.325828	0.115925	
430910.327826	0.113268	
430910.329826	0.109330	
430910.331827	0.105357	
430910.335825	0.102297	
430910.337827	0.096250	
430910.339826	0.093575	
430910.341826	0.091022	
430910.343826	0.087999	
430910.345827	0.085225	
430910.347827	0.082981	
430910.349826	0.079116	
430910.351826	0.076272	
430910.355833	0.074053	
430910.357836	0.068673	
430910.359835	0.066380	
430910.361834	0.064208	
430910.363834	0.061355	
430910.365834	0.058486	
430910.369832	0.053737	
430910.371834	0.050914	
430910.373834	0.048762	
430910.375835	0.047164	
430910.379834	0.044847	
430910.381835	0.042125	
430910.383834	0.039705	
430910.385833	0.038390	
430910.387834	0.036843	
430910.391832	0.034785	
430910.393834	0.031300	
430910.395834	0.030079	
430910.399835	0.028906	
430910.401834	0.026419	
430910.403833	0.026023	
430910.405835	0.024358	
430910.407834	0.024135	
430910.409835	0.022645	
430910.411835	0.020677	
430910.415834	0.019937	
430910.417835	0.018877	
430910.419834	0.018499	
430910.421835	0.018280	
430910.423834	0.018241	
430910.425835	0.016975	
430910.427834	0.016339	
430910.429836	0.016163	
430910.431834	0.015120	
430910.433835	0.014348	
430910.437843	0.014154	
430910.439844	0.013642	
430910.441844	0.014376	
430910.443845	0.013118	
430910.445845	0.013158	
430910.447845	0.013187	
430910.451842	0.012427	
430910.453844	0.010982	
430910.455845	0.010958	
430910.459844	0.010816	
430910.461845	0.011337	
430910.463844	0.010541	
430910.465844	0.010545	
430910.467842	0.010801	
430910.471841	0.009937	
430910.475841	0.008850	
430910.477843	0.008854	
430910.479842	0.008796	
430910.481845	0.008943	
430910.483844	0.007962	
430910.485844	0.008082	
430910.489841	0.007893	
430910.491844	0.006107	
430910.493844	0.005691	
430910.497843	0.005513	
430910.499843	0.005895	
430910.501843	0.005432	
430910.503844	0.004986	
430910.505845	0.004513	
430910.507844	0.004656	
430910.511843	0.003374	
430910.515844	0.002941	
430910.517844	0.002661	
430910.519843	0.002640	
430910.521842	0.001850	
430910.523843	0.001795	
430910.527841	0.001593	
430910.529844	0.000172	
430910.531844	-0.000266	
430910.535842	-0.000362	
430910.537844	-0.000142	
430910.539844	-0.000405	
430910.541843	-0.000514	
430910.543843	-0.000779	
430910.545843	-0.001115	
430910.547846	-0.001719	
430910.551854	-0.001906	
430910.553853	-0.002032	
430910.555854	-0.001530	
430910.557854	-0.001112	
430910.559854	-0.001575	
430910.561854	-0.001694	
430910.565851	-0.002127	
430910.567853	-0.002563	
430910.569853	-0.002377	
430910.571853	-0.002482	
430910.575853	-0.002188	
430910.577853	-0.001647	
430910.579854	-0.001238	
430910.581854	-0.001391	
430910.583855	-0.001159	
430910.587852	-0.000998	
430910.591852	-0.002547	
430910.593856	-0.001477	
430910.595864	-0.000486	
430910.597864	-0.000336	
430910.599864	-0.000665	
430910.601864	-0.000715	
430910.603864	-0.000599	
430910.605863	-0.001424	
430910.609865	-0.001439	
430910.611866	-0.001076	
430910.613865	-0.000969	
430910.615866	-0.001069	
430910.617865	-0.000590	
430910.619866	-0.000880	
430910.621864	-0.001486	
430910.623866	-0.001283	
430910.625866	-0.001460	
430910.629864	-0.002756	
430910.633865	-0.002726	
430910.635866	-0.002336	
430910.637864	-0.002768	
430910.639865	-0.003431	
430910.641864	-0.003135	
430910.645864	-0.003999	
430910.647865	-0.004868	
430910.649866	-0.005744	
430910.653865	-0.006010	
430910.655866	-0.006310	
430910.657865	-0.006168	
430910.659866	-0.007108	
430910.661866	-0.007317	
430910.663865	-0.008106	
430910.667865	-0.009425	
430910.671864	-0.010123	
430910.673866	-0.010239	
430910.675866	-0.010496	
430910.677864	-0.011481	
430910.679866	-0.011801	
430910.683863	-0.012310	
430910.685866	-0.013856	
430910.687864	-0.015107	
430910.691865	-0.014720	
430910.693866	-0.015335	
430910.695866	-0.015284	
430910.697866	-0.015759	
430910.699864	-0.016726	
430910.701866	-0.016553	
430910.703866	-0.018732	
430910.707868	-0.019199	
430910.709871	-0.019589	
430910.711870	-0.019326	
430910.713870	-0.019230	
430910.715869	-0.020501	
430910.717871	-0.020759	
430910.719870	-0.020759	
430910.723868	-0.022582	
430910.727867	-0.023774	
430910.729870	-0.024285	
430910.731868	-0.024497	
430910.733869	-0.025171	
430910.735870	-0.025698	
430910.737869	-0.026448	
430910.741868	-0.027198	
430910.743870	-0.030047	
430910.745869	-0.030370	
430910.749869	-0.031532	
430910.751872	-0.032241	
430910.753869	-0.034029	
430910.755870	-0.035396	
430910.757870	-0.036330	
430910.759869	-0.038160	
430910.763870	-0.040022	
430910.765868	-0.043357	
430910.767870	-0.044767	
430910.769870	-0.046338	
430910.771871	-0.047552	
430910.773869	-0.049659	
430910.775870	-0.051604	
430910.777870	-0.053761	
430910.779870	-0.056371	
430910.781868	-0.059211	
430910.785869	-0.062500	
430910.787870	-0.066991	
430910.789870	-0.069752	
430910.791875	-0.072227	
430910.793870	-0.075694	
430910.795872	-0.078799	
430910.797874	-0.081721	
430910.801873	-0.085951	
430910.803874	-0.093541	
430910.805873	-0.096925	
430910.807873	-0.101423	
430910.809878	-0.104219	
430910.811876	-0.108335	
430910.813876	-0.112700	
430910.815875	-0.117097	
430910.817874	-0.121317	
430910.821873	-0.125335	
430910.825873	-0.135761	
430910.827876	-0.144050	
430910.829876	-0.148243	
430910.831876	-0.152778	
430910.833874	-0.158359	
430910.835875	-0.162137	
430910.839874	-0.167088	
430910.841875	-0.177831	
430910.843874	-0.182443	
430910.847875	-0.187572	
430910.849876	-0.196406	
430910.851877	-0.201305	
430910.853874	-0.206395	
430910.855875	-0.211413	
430910.857876	-0.215442	
430910.859874	-0.221926	
430910.863880	-0.226721	
430910.865882	-0.237519	
430910.867882	-0.241500	
430910.869882	-0.246676	
430910.871881	-0.252029	
430910.873882	-0.257679	
430910.875880	-0.262876	
430910.877881	-0.267843	
430910.879882	-0.274153	
430910.883887	-0.278910	
430910.885888	-0.292311	
430910.887888	-0.296284	
430910.889886	-0.302707	
430910.891886	-0.308771	
430910.893889	-0.315483	
430910.895890	-0.320964	
430910.899888	-0.328113	
430910.901890	-0.341469	
430910.903890	-0.348492	
430910.905890	-0.355555	
430910.907889	-0.361358	
430910.909890	-0.369013	
430910.911891	-0.375347	
430910.913890	-0.381687	
430910.915890	-0.389554	
430910.917888	-0.396010	
430910.921889	-0.402552	
430910.923890	-0.412718	
430910.925888	-0.417587	
430910.927893	-0.422459	
430910.929894	-0.427410	
430910.931893	-0.433549	
430910.933894	-0.439266	
430910.935894	-0.444789	
430910.937894	-0.450371	
430910.941898	-0.457126	
430910.945898	-0.464082	
430910.947900	-0.471338	
430910.949902	-0.474424	
430910.951899	-0.477468	
430910.953898	-0.479673	
430910.957897	-0.481511	
430910.959900	-0.485342	
430910.961899	-0.486272	
430910.965900	-0.484280	
430910.967900	-0.483584	
430910.969901	-0.481926	
430910.971899	-0.480970	
430910.973901	-0.477668	
430910.975900	-0.475367	
430910.977900	-0.474124	
430910.981900	-0.469707	
430910.983899	-0.460236	
430910.985900	-0.453992	
430910.987900	-0.449324	
430910.989900	-0.443841	
430910.991904	-0.437770	
430910.993899	-0.431467	
430910.995903	-0.424631	
430910.997901	-0.420449	
430911.001900	-0.415460	
430911.003900	-0.403294	
430911.005900	-0.395961	
430911.007902	-0.387946	
430911.009902	-0.381174	
430911.011901	-0.371959	
430911.013901	-0.364194	
430911.017899	-0.355837	
430911.021900	-0.340110	
430911.023902	-0.321644	
430911.025902	-0.313829	
430911.027901	-0.304666	
430911.029901	-0.297174	
430911.031901	-0.288602	
430911.035900	-0.281080	
430911.037902	-0.265830	
430911.039902	-0.255623	
430911.043900	-0.248394	
430911.045902	-0.232152	
430911.047902	-0.223581	
430911.049902	-0.217428	
430911.051900	-0.208654	
430911.055900	-0.201188	
430911.057902	-0.186753	
430911.061902	-0.180747	
430911.063902	-0.164317	
430911.065901	-0.157863	
430911.067902	-0.150208	
430911.069902	-0.142675	
430911.073900	-0.136989	
430911.075900	-0.123775	
430911.077902	-0.116774	
430911.081901	-0.110680	
430911.083904	-0.095136	
430911.085901	-0.088938	
430911.087901	-0.081639	
430911.089903	-0.075479	
430911.091907	-0.067618	
430911.095902	-0.061491	
430911.097903	-0.049195	
430911.099902	-0.043565	
430911.101904	-0.035025	
430911.103902	-0.027948	
430911.105902	-0.021962	
430911.107902	-0.014811	
430911.109902	-0.007202	
430911.111901	-0.001434	
430911.113901	0.005450	
430911.117902	0.012496	
430911.119902	0.025882	
430911.121902	0.032812	
430911.123902	0.040643	
430911.125902	0.048531	
430911.127901	0.054237	
430911.129902	0.061395	
430911.131902	0.068340	
430911.133902	0.074822	
430911.137901	0.082585	
430911.139900	0.096104	
430911.141901	0.106705	
430911.143903	0.113338	
430911.145904	0.120143	
430911.147902	0.126953	
430911.149902	0.134130	
430911.151903	0.143109	
430911.153904	0.149595	
430911.157904	0.157128	
430911.159904	0.172466	
430911.161904	0.181526	
430911.163904	0.190292	
430911.165905	0.197322	
430911.167905	0.203828	
430911.169906	0.212400	
430911.173903	0.220313	
430911.175905	0.236454	
430911.177904	0.243611	
430911.179904	0.250384	
430911.181907	0.260316	
430911.183906	0.269226	
430911.185906	0.276303	
430911.187906	0.284106	
430911.189907	0.292700	
430911.193905	0.300883	
430911.197904	0.315313	
430911.199907	0.331283	
430911.201906	0.340431	
430911.205905	0.353691	
430911.207906	0.360229	
430911.211904	0.367205	
430911.213907	0.379834	
430911.215906	0.383628	
430911.219905	0.388648	
430911.221907	0.399778	
430911.223906	0.405563	
430911.225907	0.407921	
430911.227907	0.411096	
430911.229906	0.413344	
430911.233914	0.415608	
430911.237914	0.421723	
430911.239914	0.425577	
430911.241914	0.429162	
430911.243915	0.429447	
430911.245914	0.431557	
430911.249912	0.432291	
430911.251915	0.433376	
430911.253915	0.432611	
430911.257914	0.431431	
430911.259915	0.432621	
430911.261914	0.431608	
430911.263914	0.430728	
430911.265915	0.429341	
430911.267922	0.428771	
430911.271920	0.426453	
430911.275921	0.422117	
430911.277922	0.418377	
430911.279923	0.416628	
430911.281923	0.413775	
430911.283922	0.411708	
430911.287920	0.409663	
430911.289923	0.403655	
430911.291922	0.704508	
430911.303832	0.388937	
430911.305836	0.381536	
430911.307834	0.373828	
430911.309834	0.365994	
430911.313832	0.359406	
430911.315833	0.353082	
430911.317835	0.347437	
430911.321833	0.343360	
430911.323833	0.334882	
430911.325834	0.330157	
430911.327833	0.323542	
430911.329834	0.319818	
430911.331834	0.312217	
430911.333834	0.304726	
430911.337839	0.297843	
430911.339840	0.283297	
430911.341840	0.276489	
430911.343840	0.268441	
430911.345839	0.261669	
430911.347840	0.253714	
430911.349845	0.248651	
430911.353846	0.242530	
430911.357846	0.230005	
430911.359848	0.219984	
430911.361848	0.215220	
430911.363849	0.209774	
430911.365848	0.204624	
430911.367848	0.199183	
430911.371846	0.194781	
430911.373848	0.182398	
430911.375848	0.177362	
430911.379847	0.171249	
430911.381848	0.162856	
430911.383847	0.157660	
430911.385848	0.153891	
430911.387848	0.149218	
430911.389848	0.144519	
430911.391849	0.140731	
430911.397848	0.133898	
430911.399848	0.126982	
430911.401847	0.124446	
430911.403848	0.120892	
430911.405849	0.118070	
430911.409847	0.114437	
430911.411848	0.107119	
430911.413848	0.104637	
430911.417847	0.101835	
430911.419848	0.096820	
430911.421847	0.094096	
430911.423848	0.091332	
430911.425848	0.089543	
430911.427848	0.087129	
430911.429850	0.083707	
430911.433852	0.081880	
430911.435851	0.077971	
430911.437857	0.076773	
430911.439862	0.074603	
430911.441861	0.072481	
430911.443862	0.069713	
430911.445862	0.068722	
430911.447861	0.066429	
430911.449862	0.063402	
430911.451863	0.061949	
430911.455862	0.060408	
430911.457862	0.057811	
430911.459864	0.056045	
430911.461862	0.054599	
430911.463861	0.053293	
430911.465862	0.051867	
430911.469860	0.050841	
430911.471863	0.046873	
430911.473861	0.045635	
430911.477862	0.044084	
430911.479861	0.042728	
430911.481862	0.041721	
430911.483861	0.039860	
430911.485862	0.039097	
430911.489861	0.037057	
430911.491862	0.034817	
430911.495872	0.033067	
430911.497873	0.032389	
430911.499873	0.031106	
430911.501872	0.029960	
430911.503871	0.029323	
430911.507869	0.028155	
430911.509872	0.025658	
430911.511872	0.024561	
430911.515871	0.024181	
430911.517872	0.022174	
430911.519872	0.022544	
430911.521873	0.020924	
430911.523873	0.020602	
430911.525881	0.019333	
430911.529883	0.017459	
430911.531884	0.016734	
430911.533883	0.015598	
430911.535885	0.015680	
430911.537885	0.015195	
430911.539885	0.014228	
430911.541884	0.014154	
430911.543884	0.013227	
430911.545883	0.012017	
430911.549881	0.011287	
430911.553882	0.010021	
430911.555884	0.009272	
430911.557885	0.009461	
430911.559883	0.008324	
430911.561883	0.008156	
430911.565881	0.008460	
430911.567883	0.006369	
430911.569884	0.005671	
430911.573883	0.005610	
430911.575883	0.006084	
430911.577883	0.005292	
430911.579883	0.004518	
430911.581883	0.004911	
430911.583883	0.004595	
430911.585883	0.003409	
430911.589887	0.002884	
430911.591888	0.002896	
430911.593888	0.003150	
430911.595888	0.003169	
430911.597888	0.003063	
430911.599888	0.002340	
430911.601888	0.002339	
430911.603887	0.002064	
430911.605887	0.000694	
430911.607889	0.000960	
430911.611887	0.000768	
430911.613887	0.001182	
430911.615887	0.001407	
430911.617888	0.000804	
430911.619887	0.000252	
430911.621893	0.000472	
430911.623889	0.000617	
430911.627889	-0.001017	
430911.631890	-0.000914	
430911.633892	-0.001739	
430911.635891	-0.000931	
430911.637891	-0.002167	
430911.639890	-0.002078	
430911.641891	-0.002186	
430911.645889	-0.003065	
430911.647891	-0.004252	
430911.649890	-0.005010	
430911.653891	-0.005258	
430911.655891	-0.005315	
430911.657892	-0.005934	
430911.659890	-0.006390	
430911.661892	-0.007004	
430911.663891	-0.007022	
430911.665892	-0.008425	
430911.669895	-0.009252	
430911.671895	-0.010005	
430911.673895	-0.010183	
430911.675896	-0.010499	
430911.677895	-0.011036	
430911.679895	-0.011358	
430911.681895	-0.012154	
430911.683895	-0.013098	
430911.685895	-0.013792	
430911.689894	-0.014938	
430911.691896	-0.015830	
430911.693896	-0.015884	
430911.695896	-0.016380	
430911.697895	-0.016196	
430911.699896	-0.018877	
430911.701895	-0.017972	
430911.705893	-0.019119	
430911.709893	-0.020173	
430911.711895	-0.021504	
430911.715894	-0.022119	
430911.717896	-0.022803	
430911.719898	-0.023398	
430911.723897	-0.024103	
430911.725900	-0.025869	
430911.727900	-0.026249	
430911.731900	-0.027036	
430911.733900	-0.028093	
430911.735899	-0.028114	
430911.737900	-0.028793	
430911.739900	-0.029263	
430911.741899	-0.030116	
430911.745899	-0.032115	
430911.747900	-0.032966	
430911.749898	-0.034754	
430911.751902	-0.034297	
430911.753901	-0.035249	
430911.755901	-0.036173	
430911.757901	-0.037555	
430911.759902	-0.037641	
430911.761901	-0.039327	
430911.765900	-0.041191	
430911.769900	-0.043246	
430911.771902	-0.044693	
430911.773902	-0.046687	
430911.775901	-0.048038	
430911.777902	-0.049647	
430911.781899	-0.050998	
430911.783900	-0.055372	
430911.785901	-0.056912	
430911.789900	-0.058885	
430911.791902	-0.061602	
430911.793901	-0.064070	
430911.795901	-0.066437	
430911.797902	-0.067635	
430911.799901	-0.071030	
430911.803901	-0.074030	
430911.807901	-0.079572	
430911.809902	-0.084423	
430911.811901	-0.087037	
430911.813901	-0.089635	
430911.815902	-0.092760	
430911.819899	-0.096039	
430911.821902	-0.103205	
430911.823902	-0.106988	
430911.827901	-0.109677	
430911.829901	-0.116301	
430911.831901	-0.119600	
430911.833902	-0.123630	
430911.835901	-0.126160	
430911.837901	-0.130179	
430911.839903	-0.135562	
430911.843906	-0.138372	
430911.845905	-0.146365	
430911.847905	-0.149238	
430911.849905	-0.153315	
430911.851907	-0.157004	
430911.853906	-0.160975	
430911.855905	-0.164803	
430911.857906	-0.169184	
430911.859905	-0.173761	
430911.861908	-0.178371	
430911.865908	-0.181554	
430911.867907	-0.189628	
430911.869908	-0.193015	
430911.871907	-0.197058	
430911.873907	-0.201301	
430911.875908	-0.204886	
430911.879905	-0.209954	
430911.881907	-0.218586	
430911.883906	-0.223222	
430911.887907	-0.227216	
430911.889907	-0.235736	
430911.891908	-0.239636	
430911.893908	-0.244627	
430911.895907	-0.249718	
430911.897908	-0.253685	
430911.901907	-0.260440	
430911.905907	-0.275099	
430911.907909	-0.279173	
430911.909907	-0.284960	
430911.911908	-0.290576	
430911.913908	-0.295209	
430911.917906	-0.301230	
430911.919906	-0.313573	
430911.921906	-0.320197	
430911.925908	-0.325419	
430911.927908	-0.336859	
430911.929907	-0.342649	
430911.931907	-0.349100	
430911.933908	-0.355252	
430911.935907	-0.361070	
430911.937913	-0.367748	
430911.941913	-0.373683	
430911.943913	-0.385133	
430911.945914	-0.389761	
430911.947913	-0.395239	
430911.949912	-0.401016	
430911.951913	-0.405104	
430911.953914	-0.409249	
430911.955914	-0.412483	
430911.957914	-0.416449	
430911.961918	-0.419416	
430911.963919	-0.425292	
430911.965919	-0.428427	
430911.967919	-0.430212	
430911.969919	-0.432484	
430911.971919	-0.434137	
430911.973920	-0.435487	
430911.975919	-0.437160	
430911.977919	-0.438872	
430911.979918	-0.438266	
430911.983920	-0.437710	
430911.985920	-0.436010	
430911.987920	-0.433971	
430911.989919	-0.431895	
430911.991920	-0.429270	
430911.993919	-0.426109	
430911.997917	-0.422825	
430911.999919	-0.417478	
430912.001919	-0.414579	
430912.005919	-0.410868	
430912.007920	-0.401821	
430912.009920	-0.396831	
430912.011919	-0.392228	
430912.013919	-0.386023	
430912.015919	-0.379754	
430912.019919	-0.374116	
430912.021920	-0.361643	
430912.023919	-0.355021	
430912.025919	-0.346535	
430912.027924	-0.340180	
430912.029924	-0.333431	
430912.031922	-0.326726	
430912.033923	-0.319988	
430912.035921	-0.312415	
430912.037924	-0.306508	
430912.041924	-0.299778	
430912.043926	-0.286071	
430912.045926	-0.279894	
430912.047926	-0.273257	
430912.049925	-0.266380	
430912.051925	-0.260465	
430912.053928	-0.254266	
430912.057923	-0.248879	
430912.059925	-0.238436	
430912.061924	-0.230126	
430912.065924	-0.225939	
430912.067925	-0.213675	
430912.069925	-0.207607	
430912.073923	-0.195776	
430912.075925	-0.190787	
430912.077929	-0.186227	
430912.083935	-0.173586	
430912.085935	-0.161666	
430912.087935	-0.154297	
430912.089935	-0.149463	
430912.091935	-0.140923	
430912.095933	-0.136276	
430912.097935	-0.123518	
430912.099936	-0.116352	
430912.103937	-0.110052	
430912.105934	-0.093855	
430912.107936	-0.085944	
430912.109936	-0.078444	
430912.111936	-0.071362	
430912.113936	-0.063261	
430912.115935	-0.056648	
430912.119941	-0.048305	
430912.121941	-0.032188	
430912.123941	-0.022955	
430912.125941	-0.015469	
430912.127941	-0.007220	
430912.129945	0.003104	
430912.131941	0.012318	
430912.135939	0.019665	
430912.137942	0.035780	
430912.139941	0.043761	
430912.141940	0.054524	
430912.143948	0.063174	
430912.145943	0.071605	
430912.147944	0.080670	
430912.149943	0.089030	
430912.151943	0.097522	
430912.153943	0.107413	
430912.159942	0.123430	
430912.161944	0.140045	
430912.163943	0.149007	
430912.165945	0.157536	
430912.167945	0.164564	
430912.169946	0.172679	
430912.173944	0.181005	
430912.175946	0.196650	
430912.177946	0.204910	
430912.181946	0.211866	
430912.183946	0.228387	
430912.185946	0.236452	
430912.187947	0.243278	
430912.189946	0.250641	
430912.191945	0.257831	
430912.195944	0.264070	
430912.199945	0.278379	
430912.201946	0.293210	
430912.203947	0.299862	
430912.205945	0.308267	
430912.207946	0.314390	
430912.211944	0.321595	
430912.213946	0.332672	
430912.215945	0.339811	
430912.219948	0.346281	
