num crossings	time (s)	maj axis (mm)	min axis (mm)	theta (rad )	slope (V/s)
414627	434248.570745	36.552385	-11.049108	2.558745	1.737382
414631	434252.747579	37.514224	-6.591139	2.513767	3.728633
414633	434254.846502	37.555186	-10.456754	2.570222	1.650519
414635	434256.950627	37.199742	-10.983822	2.550286	3.203629
414637	434259.041470	37.964591	-6.760806	2.520912	4.206849
414639	434261.126793	38.688128	10.701332	2.504280	2.646005
414641	434263.225478	37.158109	-11.019301	2.476024	2.083556
414643	434265.323855	38.295525	-10.446360	2.547386	3.723198
414645	434267.415458	39.225810	-8.817380	2.541775	3.605719
414647	434269.504087	39.418593	10.545390	2.500708	2.388092
414649	434271.601638	38.999885	-10.311271	2.549277	3.476898
414651	434273.692707	38.866508	-9.714815	2.539824	3.921306
414653	434275.781513	40.200483	-10.020416	2.553132	2.689202
414655	434277.882369	38.331422	-10.539460	2.473113	3.630853
414657	434279.971622	40.478699	-4.908531	2.505318	3.980295
414659	434282.069403	41.390924	-9.438620	2.553515	3.665433
414661	434284.158682	41.351547	10.032617	2.501384	4.479072
414663	434286.251771	39.352312	-10.377515	2.464338	2.994787
414665	434288.343431	40.503253	-9.422887	2.523406	3.973897
414667	434290.436923	42.057744	-5.218023	2.506545	2.954957
414669	434292.532526	42.155536	-9.163323	2.543966	3.834936
414671	434294.627481	42.461219	-9.204645	2.544122	3.789411
414673	434296.718632	41.671644	-9.460975	2.533863	3.520519
414675	434298.808871	42.232840	-9.183410	2.517608	3.892528
414677	434300.903674	43.167333	-9.176626	2.536851	3.825094
414679	434302.994599	40.542200	-9.911511	2.456743	3.949010
414681	434305.086891	43.178094	-9.085191	2.534229	3.989983
414683	434307.183689	41.213728	-9.605931	2.457582	3.446190
414685	434309.277019	43.613852	-8.052693	2.521475	3.794938
414687	434311.367002	43.923606	-8.722469	2.534773	4.450649
414689	434313.458866	43.905833	9.296207	2.484191	3.630843
414691	434315.550020	43.812122	9.149395	2.481637	4.092470
414693	434317.643378	43.275218	-8.930455	2.519774	3.860040
414695	434319.736912	43.333195	-8.813090	2.518329	4.519458
414697	434321.826380	44.456174	-4.120107	2.489297	4.011207
414699	434323.921712	44.463128	8.929864	2.475673	3.720644
414701	434326.011549	44.523191	8.936635	2.476555	4.060621
414703	434328.106010	45.469155	9.016137	2.484288	3.593276
414705	434330.201886	45.423090	8.829144	2.478061	4.381400
414707	434332.293080	45.167300	-8.425495	2.520298	4.458075
414709	434334.386153	45.053324	8.771526	2.468653	4.073002
414711	434336.476923	45.116252	8.761934	2.466419	4.661226
414713	434338.568870	45.533786	-8.265438	2.519804	4.136223
414715	434340.660322	43.426533	-9.077818	2.447839	4.196493
414717	434342.752641	45.923356	-4.209679	2.486034	4.494087
414719	434344.847532	45.813305	-8.096277	2.517672	4.292582
414721	434346.939802	43.672809	-9.282034	2.435964	4.441067
414723	434349.031947	45.593171	-9.905585	2.527343	4.537865
414725	434351.123156	46.046041	8.480920	2.461796	4.402268
414727	434353.215903	46.065675	-8.092692	2.512994	4.619015
414729	434355.305352	43.697576	-8.914515	2.441412	5.106924
414731	434357.394018	46.724709	-4.524870	2.483077	4.653331
414733	434359.488532	45.484277	-8.249869	2.500819	3.892803
414735	434361.580463	46.811426	-8.118745	2.507325	4.383375
414737	434363.675362	44.097918	-8.849991	2.434771	3.752875
414739	434365.768848	46.851936	-6.137315	2.487698	4.974571
414741	434367.858160	46.902238	-7.895277	2.505719	4.422958
414743	434369.950081	46.838952	8.214642	2.451542	4.185634
414745	434372.046507	47.564488	8.228250	2.455710	4.274998
414747	434374.138294	47.549943	8.256731	2.462524	4.900544
414749	434376.225354	46.277110	-8.035033	2.493405	4.439621
414751	434378.319483	47.198378	-4.038478	2.464250	3.715085
414753	434380.412490	45.337847	-8.661934	2.431638	4.750551
414755	434382.501228	47.617052	-6.171952	2.484085	4.919545
414757	434384.593547	45.158734	-8.729617	2.419670	4.168171
414759	434386.690213	48.045953	-5.855813	2.479187	4.177422
414761	434388.781521	47.819881	8.187272	2.450142	4.979967
414763	434390.872440	47.764764	8.115120	2.452059	4.820719
414765	434392.964580	47.988437	-7.647354	2.495247	4.033252
414767	434395.058473	48.019638	-7.584236	2.494959	4.454925
414769	434397.151938	48.528889	8.051586	2.453188	5.239526
414771	434399.240589	45.689961	-8.691465	2.416916	4.965583
414773	434401.330949	47.183668	-7.768959	2.480256	4.801085
414775	434403.423662	48.876212	-4.058011	2.458361	4.052927
414777	434405.518346	48.602223	8.048238	2.449779	4.425037
414779	434407.609417	48.539681	7.962125	2.442909	4.652124
414781	434409.701206	48.281639	7.943542	2.440734	4.525648
414783	434411.792035	46.221722	-8.662293	2.407338	5.237036
414785	434413.883238	47.324831	-7.523395	2.471983	4.859303
414787	434415.974962	48.886171	-7.663283	2.481971	5.097040
414789	434418.066489	48.813752	-7.388253	2.485052	4.951853
414791	434420.158826	47.624836	-7.641470	2.473072	4.896375
414793	434422.253158	49.465483	-3.005128	2.445963	5.094339
414795	434424.344669	48.686896	-7.435392	2.480762	4.996659
414797	434426.436234	47.902700	-7.679159	2.470017	5.066748
414799	434428.527989	48.999327	-9.952208	2.502973	4.683404
414801	434430.619225	46.682714	-8.328162	2.405451	4.893765
414803	434432.709862	49.657296	-7.371032	2.478953	4.526811
414805	434434.801118	49.308168	7.784630	2.427333	4.391991
414807	434436.894283	49.542799	7.776763	2.427990	4.537519
414809	434438.987317	49.164117	-7.458582	2.474125	5.171050
414811	434441.079465	49.040397	7.824000	2.426043	5.225877
414813	434443.169990	49.477489	7.837422	2.426710	5.221459
414815	434445.262669	48.315315	-7.536640	2.462144	4.431608
414817	434447.355828	49.720797	-10.325952	2.499357	4.631793
414819	434449.448834	49.379192	-7.431761	2.470387	5.608213
414821	434451.536614	50.309414	7.713489	2.430364	5.381199
414823	434453.628153	50.155100	7.771939	2.428094	4.231853
414825	434455.721406	49.690171	-7.241207	2.468579	4.619921
414827	434457.811813	49.762597	7.733674	2.425714	5.379056
414829	434459.900829	49.746266	7.721717	2.422747	5.079907
414831	434461.994882	49.828102	-7.287509	2.460347	4.626361
414833	434464.089321	50.215950	7.647121	2.418152	5.034166
414835	434466.180065	48.743217	-7.438706	2.451741	5.379911
414837	434468.272242	49.295101	-8.358858	2.466790	5.015847
414839	434470.365037	49.871614	7.618196	2.414532	4.678315
414841	434472.456821	50.072593	7.595456	2.416138	4.846970
414843	434474.548478	50.316212	7.579967	2.413742	5.369731
414845	434476.640309	47.933865	-8.315859	2.382753	5.347199
414847	434478.731871	49.095639	-7.287710	2.439444	5.140789
414849	434480.823149	50.449087	-7.373430	2.455013	5.070927
414851	434482.915737	49.732119	7.625852	2.407548	4.666314
414853	434485.005575	47.486628	-8.339011	2.373519	4.833288
414855	434487.097891	50.796574	-6.145453	2.446532	4.929336
414857	434489.189431	49.207285	-7.465687	2.440450	4.963344
414859	434491.280733	50.981791	-4.456260	2.425310	5.244430
414861	434493.372647	49.211595	-7.399474	2.437756	5.408823
414863	434495.465061	50.673734	-4.151836	2.421466	4.992524
414865	434497.558357	49.306889	-7.432697	2.435985	5.160856
414867	434499.648682	49.219101	-7.480816	2.429963	5.164921
414869	434501.741423	49.345035	-7.483696	2.426241	5.147078
414871	434503.832105	51.279678	-5.042717	2.427023	5.142642
414873	434505.925494	50.646497	7.669973	2.403398	4.979693
414875	434508.017614	50.582904	7.677277	2.400465	4.857340
414877	434510.109041	50.499977	7.632164	2.399020	5.030464
414879	434512.201025	50.557039	7.543149	2.395898	5.096719
414881	434514.293428	48.674885	-8.324623	2.367220	5.383161
414883	434516.383668	50.180292	-12.711412	2.481806	5.356141
414885	434518.474936	48.683683	-8.410588	2.363849	5.001345
414887	434520.567290	51.511164	-8.330745	2.449073	4.802895
414889	434522.659841	50.832484	7.592130	2.394699	5.240766
414891	434524.750634	51.347714	7.687591	2.397253	5.341144
414893	434526.841204	51.344461	7.671396	2.393885	5.613021
414895	434528.932778	51.433126	7.733296	2.391544	4.884005
414897	434531.023744	48.684992	-8.272852	2.361256	5.205416
414899	434533.115381	51.208237	-7.381921	2.430806	5.400140
414901	434535.206839	49.801376	-7.534738	2.417514	5.219107
414903	434537.297233	50.484875	-7.554319	2.425150	5.177291
414905	434539.390905	50.667028	-7.382751	2.425618	5.135020
414907	434541.483790	51.442075	7.603873	2.380705	5.398247
414909	434543.574916	50.734996	-7.489472	2.424499	5.381434
414911	434545.667316	50.906193	-7.528694	2.424803	4.971963
414913	434547.759346	51.318779	7.774114	2.380644	4.767676
414915	434549.851443	50.873843	-7.618023	2.422588	5.038472
