num crossings	time (s)	maj axis (mm)	min axis (mm)	theta (rad )	slope (V/s)
413465	433023.076157	37.160805	10.839436	-0.571371	2.953101
413467	433025.166864	37.268048	10.749086	-0.576048	3.681854
413471	433029.355743	37.698802	10.585890	-0.573010	2.884966
413473	433031.447856	37.901876	10.472081	-0.569568	3.303350
413475	433033.545205	38.806877	9.886477	-0.579650	3.364379
413477	433035.633798	38.129654	10.395469	-0.569706	3.190314
413479	433037.725678	38.470458	10.028226	-0.566438	3.375204
413481	433039.822043	38.285282	10.237823	-0.566699	3.608243
413483	433041.919557	38.766919	9.803673	-0.563101	2.304577
413485	433044.009175	38.711908	9.991630	-0.566530	2.774342
413487	433046.099381	39.997355	9.350172	-0.578018	3.345066
413489	433048.192989	39.355046	9.639932	-0.566727	3.767033
413491	433050.289456	39.432921	9.802441	-0.561013	2.968730
413493	433052.381703	40.081082	10.255729	-0.541546	2.821856
413495	433054.467992	40.571208	8.981478	-0.575655	3.458702
413497	433056.563505	39.613140	9.395021	-0.557854	3.698307
413499	433058.663154	40.546475	9.572504	-0.597341	2.593587
413501	433060.751105	41.035528	8.689547	-0.571398	3.635574
413503	433062.843964	40.678850	8.412049	-0.576691	3.611209
413505	433064.939561	40.767419	8.911397	-0.555665	2.591626
413507	433067.026417	40.635534	8.770045	-0.554912	3.465335
413509	433069.120345	40.006267	5.475868	-0.568129	3.711461
413511	433071.218123	40.946570	8.497037	-0.552599	3.059283
413513	433073.308403	41.226234	8.021434	-0.572511	3.235852
413515	433075.398787	41.288685	8.476799	-0.553387	3.625598
413517	433077.491656	41.208689	8.517293	-0.551945	3.766916
413519	433079.587914	41.631423	8.187114	-0.548302	2.715822
413521	433081.677030	41.828796	6.150449	-0.574447	3.417321
413523	433083.772461	41.880207	8.455914	-0.578145	3.581835
413525	433085.864087	41.971323	7.977413	-0.546751	3.438799
413527	433087.955294	42.038440	7.962963	-0.548003	3.951169
413529	433090.047221	42.192438	7.478831	-0.561812	3.745030
413531	433092.137626	42.389746	7.767386	-0.548682	3.632447
413533	433094.229268	41.736062	5.278634	-0.568722	3.757026
413535	433096.322237	42.493499	7.510172	-0.546162	3.765128
413537	433098.416943	42.800295	7.278893	-0.557289	3.711927
413539	433100.510269	43.067975	7.211759	-0.555926	3.776364
413541	433102.601141	42.894296	7.414402	-0.544664	3.798973
413543	433104.693740	42.881623	5.555796	-0.574444	3.874342
413545	433106.784707	43.361189	7.964305	-0.528990	3.357941
413547	433108.875536	43.266843	7.022426	-0.543359	3.972312
413549	433110.968554	43.439564	5.654075	-0.575520	3.891266
413551	433113.062880	44.014376	7.456755	-0.575409	3.886563
413553	433115.155485	43.878601	7.612429	-0.524714	3.878023
413555	433117.248306	43.683420	6.802883	-0.538946	3.791065
413557	433119.340505	44.087199	6.512197	-0.551601	3.503928
413559	433121.434582	43.992490	6.758686	-0.540617	3.371990
413561	433123.525593	44.043025	6.651747	-0.540429	3.624407
413563	433125.615801	44.204171	6.601336	-0.539374	3.773754
413565	433127.706260	43.472582	2.247029	-0.531180	3.972575
413567	433129.797715	44.369065	6.992280	-0.524333	3.706535
413569	433131.890170	45.482747	6.055102	-0.549224	3.673870
413571	433133.983330	43.635926	2.400053	-0.539935	3.794847
413573	433136.078516	44.891996	5.941986	-0.547011	3.722173
413575	433138.171518	44.716555	6.111623	-0.539227	3.688845
413577	433140.263783	44.891949	6.040202	-0.537856	4.084759
413579	433142.353678	45.008009	5.983945	-0.535831	3.954492
413581	433144.445358	44.627127	6.005002	-0.532597	3.916557
413583	433146.537136	45.193752	6.366613	-0.519886	3.860063
413585	433148.629369	46.041888	5.461645	-0.543688	4.186780
413587	433150.722808	45.250478	5.670023	-0.533482	4.014428
413589	433152.816185	45.893285	5.928515	-0.584465	3.732835
413591	433154.906633	45.475631	6.048357	-0.520546	3.936115
413593	433156.998339	45.945216	6.167661	-0.515137	4.004409
413595	433159.091036	45.409575	5.310703	-0.531024	3.799305
413597	433161.183719	45.634001	5.340233	-0.532502	3.885978
413599	433163.276241	46.001595	5.270680	-0.571829	3.646727
413601	433165.367102	45.865925	5.660536	-0.520137	4.130304
413603	433167.458122	45.823673	5.033740	-0.529659	3.974601
413605	433169.549152	45.914282	4.627604	-0.545322	3.851355
413607	433171.641066	45.941213	4.995741	-0.532541	4.264490
413609	433173.732792	46.017195	4.955906	-0.532117	4.145310
413611	433175.824614	46.049642	4.577686	-0.542245	4.432152
413613	433177.918459	46.173541	4.863094	-0.528430	4.067319
413615	433180.012973	46.162384	4.788923	-0.528391	4.052271
413617	433182.103853	46.200828	4.723387	-0.528935	4.120220
413619	433184.194526	46.260147	4.660259	-0.529482	4.167508
413621	433186.286294	46.696703	4.840924	-0.576277	4.134565
413623	433188.377018	46.493160	4.416277	-0.528658	4.196452
413625	433190.469615	46.746387	4.009938	-0.541332	4.030426
413627	433192.560806	46.075356	4.612318	-0.525243	3.769568
413629	433194.653385	46.505183	4.296652	-0.526885	3.865610
413631	433196.745468	46.975467	3.984617	-0.538818	4.054879
413633	433198.835608	46.697415	4.261857	-0.528123	4.106943
413635	433200.927383	46.676096	3.983616	-0.536767	4.185746
413637	433203.021675	46.509561	2.721459	-0.552832	4.092832
413639	433205.113630	46.822755	4.007272	-0.524780	4.125336
413641	433207.205108	46.844679	4.027687	-0.526103	4.083591
413643	433209.297215	46.563125	4.091671	-0.521410	4.354253
413645	433211.390536	46.989652	4.373418	-0.515330	4.184460
413647	433213.484638	47.393842	4.367627	-0.563092	3.904240
413649	433215.575446	47.041545	4.217940	-0.562246	4.307220
413651	433217.666929	47.286587	4.182480	-0.514953	4.529385
413653	433219.757933	47.196028	3.653011	-0.522778	4.119551
413655	433221.850350	47.316866	3.676075	-0.523129	3.981934
413657	433223.939927	47.313194	3.626836	-0.523200	4.298713
413659	433226.031179	46.844995	1.677840	-0.540582	4.067695
413661	433228.124156	47.417859	3.964865	-0.512239	4.042873
413663	433230.217206	47.231997	3.303212	-0.529412	3.874806
413665	433232.309218	47.402953	3.170795	-0.530810	4.235659
413667	433234.400342	47.306826	3.068876	-0.532367	4.241507
413669	433236.491337	47.475729	3.331749	-0.523471	4.244509
413671	433238.584175	46.874266	1.566722	-0.545473	4.048483
413673	433240.676311	47.557447	3.173246	-0.520719	4.080422
413675	433242.767427	47.991348	3.053518	-0.557201	4.005293
413677	433244.860038	47.602098	3.018671	-0.521824	4.159744
413679	433246.949907	47.699576	3.064601	-0.523983	4.103700
413681	433249.042619	47.869186	2.729880	-0.532272	4.385014
413683	433251.134609	49.991062	4.404635	-0.564307	4.009563
413685	433253.227594	47.752849	2.871208	-0.520259	4.438018
413687	433255.319878	47.525943	0.768317	-0.534598	4.265132
413689	433257.412608	47.856095	3.230292	-0.512636	4.286122
413691	433259.503473	49.016284	2.658656	-0.532750	4.175174
413693	433261.595509	47.484678	2.826855	-0.518442	4.003052
413695	433263.687314	47.908573	3.075472	-0.513021	4.149753
413697	433265.777701	47.942624	2.589714	-0.521205	4.313942
413699	433267.869748	48.128755	2.351200	-0.529693	3.897861
413701	433269.961163	47.975489	2.325426	-0.529799	4.199791
413703	433272.052500	47.593231	2.659041	-0.518197	4.288068
413705	433274.143570	48.910087	2.246924	-0.532076	4.268795
413707	433276.235121	46.358652	-0.161818	-0.528837	4.443909
413709	433278.327098	48.177148	2.377129	-0.521046	3.993538
413711	433280.420688	48.395731	2.100354	-0.552846	4.227654
413713	433282.512447	48.077729	2.286004	-0.519876	3.813333
413715	433284.604364	48.061955	2.318307	-0.522241	4.029846
413717	433286.697013	48.458422	2.042296	-0.530148	4.284685
413719	433288.789238	48.284089	2.244399	-0.522582	4.127838
413721	433290.882668	47.898296	2.330598	-0.518328	4.212492
413723	433292.972954	48.161611	2.748052	-0.558308	4.397833
413725	433295.062973	48.354637	2.050922	-0.518956	4.353633
413727	433297.155612	48.601465	1.943142	-0.526079	4.199965
413729	433299.245210	48.723759	1.999947	-0.523835	4.041481
413731	433301.336193	48.429916	2.011388	-0.519726	4.441639
413733	433303.428837	48.340110	-0.038232	-0.530242	4.121849
413735	433305.519849	48.359235	1.847471	-0.518516	4.265614
413737	433307.613690	48.486589	1.895349	-0.520164	4.019486
413739	433309.703936	48.072462	-0.704582	-0.527766	4.337675
413741	433311.795509	48.468251	1.748017	-0.519551	4.191783
413743	433313.886452	48.838906	1.598002	-0.526435	4.367042
413745	433315.978138	48.510388	1.748190	-0.520701	4.227003
413747	433318.071475	48.278917	0.654315	-0.540453	4.011205
413749	433320.163359	48.545922	1.594611	-0.519504	4.132750
413751	433322.253727	50.269466	2.579311	-0.558974	4.292009
413753	433324.346218	48.997598	2.269853	-0.553911	4.230963
