num crossings	time (s)	maj axis (mm)	min axis (mm)	theta (rad )	slope (V/s)
2405	3809.416323	38.590304	-10.919663	1.324796	2.690591
2409	3813.601910	38.539527	-10.204360	1.329786	2.482270
2411	3815.693666	40.711373	-9.790660	1.347551	3.045426
2413	3817.793734	39.211740	-10.761590	1.316446	2.615394
2415	3819.886378	41.442758	-10.497508	1.357909	3.263730
2417	3821.981952	39.800700	-10.393401	1.308233	3.065756
2419	3824.076267	40.122862	-10.552098	1.314479	2.936062
2421	3826.162001	43.346705	11.465338	1.317228	3.426974
2423	3828.250522	43.411974	11.342601	1.319172	3.235268
2425	3830.340973	40.606028	-10.236161	1.312943	2.597494
2427	3832.432425	40.521070	-10.332558	1.309230	3.145042
2429	3834.533363	40.706521	-10.311752	1.303113	3.050054
2431	3836.635959	40.751860	-10.259670	1.302138	2.579693
2433	3838.726319	41.479777	-10.062093	1.293978	3.364771
2435	3840.820879	41.426715	-10.145029	1.301131	3.136183
2437	3842.913479	41.932499	-9.923280	1.285866	2.867047
2439	3845.003028	41.799173	-10.111640	1.294169	3.292670
2441	3847.095146	41.854731	-9.346581	1.302641	3.131088
2443	3849.183547	42.830960	-11.719622	1.339581	3.345995
2445	3851.275387	42.264910	-10.001584	1.291552	3.615591
2447	3853.371737	42.378920	-9.282570	1.292880	3.167418
2449	3855.463844	42.427542	-9.916136	1.286527	3.440823
2451	3857.561880	42.496799	-11.126534	1.312846	3.271229
2453	3859.656387	42.640411	-9.821258	1.285699	3.707470
2455	3861.751253	44.748372	-12.538281	1.353666	3.695876
2457	3863.843656	43.077240	-9.682309	1.284639	3.444646
2459	3865.936566	42.885768	-8.831328	1.295307	3.549426
2461	3868.024514	43.362330	-9.754305	1.278316	3.657848
2463	3870.111518	43.484835	-9.735968	1.277540	3.383782
2465	3872.202225	43.491211	-10.243498	1.267186	3.487971
2467	3874.293725	44.410613	-9.464499	1.271392	3.711744
2469	3876.391386	43.511074	-9.599525	1.271856	3.301421
2471	3878.485173	43.623246	-10.335281	1.263088	3.824233
2473	3880.580732	43.939644	-9.393714	1.256720	3.893090
2475	3882.676136	43.974456	-9.707567	1.269593	3.832195
2477	3884.771096	44.107477	-9.541732	1.266896	3.462030
2479	3886.863360	44.923930	-11.466935	1.312253	3.972640
2481	3888.956431	44.662081	-9.341603	1.252320	3.972410
2483	3891.046947	44.455751	-9.560831	1.263186	4.007629
2485	3893.140394	44.175602	-10.159459	1.254859	3.724437
2487	3895.233340	48.242878	10.229853	1.266544	3.728691
2489	3897.325160	44.756255	-9.534553	1.254359	3.776078
2491	3899.416799	45.044031	-9.441879	1.251787	3.739547
2493	3901.505565	46.025910	-12.022063	1.315267	4.083099
2495	3903.595078	48.780068	10.167114	1.261611	3.988867
2497	3905.685207	45.142232	-10.168833	1.244400	3.751111
2499	3907.774510	45.534259	-9.081841	1.245343	3.882390
2501	3909.866262	45.284547	-9.308638	1.252216	3.738220
2503	3911.960041	45.257645	-9.320856	1.248809	3.473116
2505	3914.055716	45.213943	-9.433404	1.245289	3.769416
2507	3916.152811	45.683811	-9.081576	1.239560	3.660029
2509	3918.247137	45.509653	-9.326214	1.237500	3.913189
2511	3920.340136	45.415219	-8.925077	1.236803	4.015974
2513	3922.434792	46.878065	-10.433376	1.282785	4.015364
2515	3924.525019	46.508362	-9.080513	1.234902	4.264090
2517	3926.615974	46.023382	-9.319589	1.237693	4.157350
2519	3928.706826	45.996868	-9.298848	1.235411	4.360263
2521	3930.799014	47.229803	-11.960795	1.293765	4.082234
2523	3932.893131	46.108131	-9.264413	1.232651	3.827816
2525	3934.985557	47.147510	-10.939554	1.275845	3.979387
2527	3937.077624	46.028147	-9.998545	1.224733	4.156406
2529	3939.169613	46.983719	-8.876949	1.226981	4.321054
2531	3941.261877	49.435414	-6.670190	1.225343	4.175559
2533	3943.352380	46.830621	-8.921669	1.221192	3.938511
2535	3945.442021	46.598053	-9.219692	1.223377	4.019537
2537	3947.529344	46.677295	-9.198540	1.220233	4.242496
2539	3949.618564	46.725006	-9.197344	1.217838	3.895356
2541	3951.709968	46.734071	-8.922020	1.218420	3.896181
2543	3953.802428	46.722104	-9.122060	1.217710	3.950890
2545	3955.895502	46.746342	-9.236002	1.214121	3.953936
2547	3957.989319	46.922943	-9.128613	1.211932	4.047540
2549	3960.084113	46.836220	-8.592658	1.216649	4.260099
2551	3962.177992	46.995951	-9.212143	1.211593	4.136194
2553	3964.271359	46.962874	-9.093584	1.199667	4.383610
2555	3966.363950	48.255298	-11.570541	1.264837	4.168912
2557	3968.454979	47.461773	-9.100831	1.193254	4.274154
2559	3970.548529	47.249875	-9.219589	1.205201	4.254926
2561	3972.639124	47.879495	-9.059637	1.192213	4.217400
2563	3974.731200	47.390476	-9.102943	1.202391	4.242356
2565	3976.821431	47.068092	-8.497031	1.208221	4.211256
2567	3978.911924	47.557438	-9.078305	1.200956	4.343449
2569	3981.001401	47.645903	-9.228412	1.198983	4.084230
2571	3983.090772	47.593013	-9.059376	1.200222	4.240227
2573	3985.182169	48.778722	-9.964904	1.225415	4.035521
2575	3987.274894	47.314803	-9.809040	1.189608	4.095135
2577	3989.367506	47.471590	-9.070567	1.195281	4.146293
2579	3991.462531	47.541585	-9.222597	1.191185	4.070544
2581	3993.556991	47.559837	-9.122461	1.189597	4.202899
2583	3995.651925	47.722679	-8.610167	1.191175	4.278942
2585	3997.746559	49.797306	-8.485411	1.211798	4.412814
2587	3999.839006	51.520960	9.901903	1.198698	4.310724
2589	4001.931516	47.817626	-9.149087	1.183680	4.375793
2591	4004.023069	48.002139	-9.129943	1.183170	4.398440
2593	4006.114579	49.452467	-8.954583	1.188863	4.478820
2595	4008.206676	48.055104	-9.153120	1.181312	4.420274
2597	4010.299072	47.884791	-9.756669	1.173805	4.297278
2599	4012.391090	47.889993	-9.781453	1.172306	4.496423
2601	4014.481964	48.105607	-9.072687	1.178547	4.537289
2603	4016.574308	49.497339	-9.803031	1.205672	4.289916
2605	4018.665348	48.208822	-9.074646	1.174986	4.210708
2607	4020.756121	50.120595	-8.584723	1.195325	4.256258
2609	4022.845088	48.071953	-9.839019	1.163361	4.370188
2611	4024.934884	49.226331	-9.033563	1.172934	4.282943
2613	4027.024705	47.984850	-8.963141	1.170179	4.266873
2615	4029.114254	47.736711	-7.850010	1.165940	4.261484
2617	4031.204832	48.182528	-9.821113	1.156540	4.200805
2619	4033.297320	48.388202	-9.197228	1.161630	4.354567
2621	4035.389620	49.863986	-9.144337	1.184914	4.211964
2623	4037.482258	50.236070	-9.061240	1.170606	4.288962
2625	4039.575340	48.462202	-9.103941	1.158656	4.454859
2627	4041.667237	50.012725	-10.213146	1.192632	4.530598
2629	4043.760229	48.581377	-9.142481	1.155763	4.417199
2631	4045.852779	50.114193	-10.360678	1.191476	4.366403
2633	4047.943789	48.523498	-9.901014	1.144489	4.501530
2635	4050.035183	52.679916	9.931859	1.168507	4.435789
2637	4052.126125	48.365527	-9.962972	1.142156	4.547203
2639	4054.217287	48.738277	-9.122572	1.150659	4.461919
2641	4056.307825	48.671127	-8.675347	1.159049	4.163244
2643	4058.399938	48.599961	-8.641640	1.160028	4.440902
2645	4060.491042	48.633409	-8.654096	1.159427	4.186631
2647	4062.583385	48.753633	-9.118667	1.146224	4.424496
2649	4064.675970	50.596047	-6.544508	1.134218	4.298638
2651	4066.769988	48.676202	-9.148027	1.141746	4.455745
2653	4068.864071	48.654545	-9.258690	1.136397	4.179933
2655	4070.958934	48.688654	-9.204622	1.135959	4.463229
2657	4073.052066	48.916591	-9.217636	1.133703	4.421643
2659	4075.144935	52.392367	9.985113	1.149727	4.506985
2661	4077.238805	48.771724	-9.766865	1.125849	4.511916
2663	4079.330614	48.761085	-9.836607	1.123914	4.589023
2665	4081.422167	48.867716	-9.838001	1.123343	4.610374
2667	4083.514743	52.683544	10.075169	1.146241	4.654102
2669	4085.605949	50.478172	-8.982033	1.140883	4.629310
2671	4087.699813	49.034313	-9.197893	1.127009	4.565461
2673	4089.790605	48.699508	-11.117625	1.164201	4.559256
2675	4091.881697	53.234092	10.049953	1.141387	4.591877
2677	4093.972867	49.064862	-9.882709	1.114169	4.564118
2679	4096.063197	50.003865	-9.098610	1.130020	4.569423
2681	4098.152218	48.938836	-8.709553	1.130742	4.325134
2683	4100.242713	48.940178	-8.980862	1.121033	4.648194
2685	4102.333491	49.307467	-9.314130	1.113781	4.454656
2687	4104.422696	48.839633	-9.331250	1.119115	4.282953
2689	4106.513067	49.299243	-9.255508	1.112667	4.568161
2691	4108.604312	51.064019	-7.746333	1.121099	4.353182
2693	4110.696266	49.325225	-9.306479	1.110600	4.507421
2695	4112.788692	52.158660	-6.696323	1.109275	4.320716
